#  Im SED of Coleman, Wu, and Weedman (1980)
#  Extended below 1400 A and beyond 10000 A by
#  Bolzonella, Miralles, and Pello (2000) using evolutionary models
#  of Bruzual and Charlot (1993)
#
#  Obtained from ZPHOT code at
#  'http://webast.ast.obs-mip.fr/hyperz/zphot_src_1.1.tar.gz'
#
#  Truncated to wavelengths less than 12000 Angstroms, and thinned by
#  galsim.utilities.thin_tabulated_values to a relative error of 1.e-5
#
#  Angstroms     Flux/A
#
     106.00       9.86807
     182.00      60.51501
     234.00      73.29422
     260.00      79.02480
     274.00     109.68340
     284.00     116.10170
     301.00     112.37680
     328.00     130.19900
     348.00     121.54580
     357.00     171.86030
     366.00     275.18280
     375.00     269.39490
     385.00     213.29250
     395.00     325.21090
     405.00     407.33020
     414.00     402.00070
     430.00     342.86110
     441.00     399.19270
     451.00     404.17840
     460.00     350.08160
     470.00     354.03570
     480.00     397.70280
     490.00     328.13350
     500.00     408.76280
     506.00     339.70930
     512.00     596.55420
     530.00     509.33470
     540.00     414.55070
     550.00     404.80870
     560.00     529.21980
     570.00     588.53140
     580.00     563.71800
     590.00     568.87550
     600.00     463.54720
     610.00     457.93130
     620.00     574.20490
     630.00     535.52340
     640.00     578.21630
     650.00     550.59490
     658.00     498.10270
     665.00     558.56040
     675.00     582.22770
     685.00     484.52120
     695.00     565.72360
     705.00     441.71370
     716.00     572.88680
     735.00     566.23940
     755.00     532.48620
     765.00     474.83650
     775.00     523.08810
     785.00     479.13450
     795.00     508.30310
     825.00     512.20000
     835.00     393.51950
     845.00     489.33490
     855.00     476.89950
     875.00     487.04270
     895.00     482.34360
     905.00     465.61030
     915.00     479.82210
     925.00    1251.56000
     935.00    2067.02300
     945.00    2952.97200
     955.00    3543.22200
     965.00    3845.79800
     975.00    1157.57900
     985.00    2964.43300
     995.00    2917.44200
    1005.00    3839.49400
    1015.00    3833.76300
    1025.00    2304.84300
    1035.00    3075.03300
    1045.00    4637.19200
    1055.00    4418.28300
    1065.00    3582.19000
    1075.00    4021.72700
    1085.00    3368.43900
    1095.00    4089.34700
    1105.00    3829.17900
    1115.00    3663.56500
    1125.00    3174.17300
    1135.00    3877.88900
    1145.00    3567.86400
    1155.00    3627.46200
    1165.00    3601.67500
    1175.00    2371.31700
    1185.00    3421.73400
    1195.00    2731.77100
    1205.00    2169.02800
    1215.00    1658.43200
    1225.00    2601.11400
    1235.00    3346.09000
    1245.00    3460.12900
    1255.00    3290.50400
    1265.00    3040.07700
    1275.00    3490.50100
    1285.00    3531.76100
    1295.00    2882.48600
    1305.00    2907.70000
    1315.00    3387.92400
    1325.00    3184.48800
    1335.00    2903.68900
    1345.00    3213.14100
    1355.00    3101.39400
    1365.00    2814.29200
    1375.00    2828.61800
    1385.00    2803.40400
    1395.00    2180.48900
    1405.00    2207.99600
    1415.00    2544.95400
    1425.00    2501.97500
    1435.00    2551.83100
    1442.00    2612.00200
    1447.00    2601.11400
    1455.00    2506.55900
    1465.00    2327.19200
    1485.00    2332.92200
    1500.00    2310.00000
    1800.00    2026.00000
    1900.00    1908.00000
    2100.00    1643.00000
    2200.00    1523.00000
    2300.00    1417.00000
    2400.00    1320.00000
    2500.00    1232.00000
    2600.00    1154.00000
    2700.00    1086.00000
    2800.00    1029.00000
    2900.00     980.00000
    3020.00     934.00000
    3140.00     901.00000
    3260.00     880.00000
    3380.00     872.00000
    3420.00     867.00000
    3460.00     869.00000
    3500.00     876.00000
    3540.00     842.00000
    3580.00     813.00000
    3660.00     811.00000
    3700.00    1206.00000
    3740.00    1559.00000
    3780.00     930.00000
    3820.00     972.00000
    3860.00    1094.00000
    3900.00    1026.00000
    3940.00    1011.00000
    3980.00    1021.00000
    4020.00    1103.00000
    4060.00    1086.00000
    4140.00    1030.00000
    4180.00    1071.00000
    4220.00    1038.00000
    4260.00    1018.00000
    4300.00     950.00000
    4340.00    1032.00000
    4380.00    1002.00000
    4420.00     987.00000
    4460.00     996.00000
    4500.00     998.00000
    4540.00     987.00000
    4580.00     984.00000
    4620.00     956.00000
    4660.00     974.00000
    4700.00     941.00000
    4740.00     927.00000
    4780.00     922.00000
    4820.00     896.00000
    4860.00    1189.00000
    4900.00     894.00000
    4940.00    1052.00000
    4980.00    1325.00000
    5020.00    1584.00000
    5060.00     843.00000
    5100.00     857.00000
    5140.00     801.00000
    5180.00     799.00000
    5220.00     809.00000
    5260.00     787.00000
    5300.00     827.00000
    5340.00     777.00000
    5380.00     774.00000
    5420.00     742.00000
    5460.00     744.00000
    5500.00     754.00000
    5540.00     740.00000
    5660.00     720.00000
    5780.00     708.00000
    5980.00     693.00000
    6300.00     654.00000
    6620.00     621.00000
    6860.00     599.00000
    7220.00     571.00000
    7540.00     549.00000
    7820.00     532.00000
    8100.00     516.00000
    8400.00     501.00000
    8700.00     488.00000
    9400.00     460.00000
    9700.00     450.00000
    9900.00     444.00000
   10000.00     444.00000
   10025.00     431.77500
   10075.00     420.75320
   10125.00     429.75350
   10175.00     423.15970
   10275.00     420.17560
   10325.00     410.54960
   10375.00     405.59220
   10425.00     404.87020
   10525.00     397.89140
   10575.00     391.15320
   10625.00     388.60230
   10675.00     378.73560
   10775.00     372.76750
   10825.00     365.59610
   10875.00     363.71900
   10925.00     355.15190
   11025.00     357.55840
   11125.00     351.20520
   11225.00     344.41890
   11275.00     337.34370
   11375.00     331.42370
   11425.00     326.80330
   11475.00     329.45040
   11575.00     320.78700
   11625.00     315.15580
   11725.00     315.34830
   11775.00     308.27320
   11875.00     299.32100
   11925.00     303.60460
   11975.00     291.57200
