#  Sbc SED of Coleman, Wu, and Weedman (1980)
#  Extended below 1400 A and beyond 10000 A by
#  Bolzonella, Miralles, and Pello (2000) using evolutionary models
#  of Bruzual and Charlot (1993)
#
#  Obtained from ZPHOT code at
#  'http://webast.ast.obs-mip.fr/hyperz/zphot_src_1.1.tar.gz'
#
#  Truncated to wavelengths less than 12000 Angstroms, and thinned by
#  galsim.utilities.thin_tabulated_values to a relative error of 1.e-5
#
#  Angstroms     Flux/A
#
     121.00       4.29178
     216.00      19.60899
     260.00      23.06831
     290.00      33.26868
     348.00      32.44732
     366.00      62.48977
     385.00      50.16941
     405.00      87.98145
     430.00      74.95813
     451.00      86.64952
     470.00      76.47505
     480.00      84.87361
     490.00      71.07333
     500.00      86.72352
     506.00      73.07122
     512.00     123.20360
     530.00     105.77750
     540.00      87.01950
     550.00      84.94761
     570.00     120.57680
     590.00     116.43300
     600.00      95.67706
     610.00      94.38213
     620.00     116.95100
     630.00     109.25530
     650.00     111.95620
     658.00     101.59670
     675.00     117.76490
     685.00      98.59990
     695.00     114.36110
     705.00      90.01635
     716.00     115.50800
     755.00     107.18350
     765.00      95.82505
     775.00     105.18560
     795.00     102.07770
     825.00     102.63270
     835.00      79.39790
     845.00      98.00793
     895.00      96.30602
     915.00      95.89905
     935.00     405.49900
     945.00     578.65010
     955.00     694.82410
     965.00     754.39100
     975.00     228.46320
     985.00     584.56980
     995.00     575.69020
    1005.00     757.72080
    1015.00     754.76100
    1025.00     452.11660
    1035.00     603.80880
    1045.00     915.33260
    1055.00     875.00480
    1065.00     709.99330
    1075.00     797.67880
    1085.00     667.44550
    1095.00     810.99800
    1115.00     738.48190
    1125.00     645.24660
    1135.00     785.83940
    1145.00     722.20270
    1155.00     737.74190
    1165.00     735.52200
    1175.00     491.33460
    1185.00     693.34420
    1195.00     538.69210
    1215.00     325.58320
    1225.00     513.16350
    1235.00     675.95500
    1245.00     712.58310
    1255.00     680.39480
    1265.00     616.01820
    1275.00     734.78200
    1285.00     753.28110
    1295.00     616.38810
    1305.00     608.98850
    1315.00     722.94260
    1325.00     685.94450
    1335.00     620.45790
    1345.00     699.26390
    1355.00     673.73520
    1365.00     607.87860
    1375.00     620.45790
    1385.00     616.38810
    1395.00     497.25430
    1405.00     501.69410
    1415.00     560.89110
    1435.00     561.26100
    1447.00     584.19980
    1465.00     520.19310
    1495.00     522.78300
    1505.00     491.70460
    1512.00     441.38720
    1517.00     465.43590
    1525.00     452.11660
    1535.00     388.10990
    1545.00     393.28970
    1555.00     377.01050
    1585.00     435.46750
    1605.00     427.32790
    1625.00     403.64910
    1635.00     424.73800
    1645.00     427.32790
    1655.00     401.05930
    1665.00     425.84800
    1672.00     382.56020
    1677.00     431.02770
    1685.00     438.42730
    1715.00     372.57070
    1725.00     366.61400
    1735.00     387.00000
    1745.00     376.64050
    1755.00     393.28970
    1765.00     365.43010
    1785.00     371.09080
    1800.00     387.00000
    1900.00     390.00000
    2000.00     379.00000
    2100.00     364.00000
    2200.00     353.00000
    2400.00     346.00000
    2700.00     347.00000
    2800.00     348.00000
    2900.00     353.00000
    3020.00     367.00000
    3100.00     382.00000
    3180.00     403.00000
    3260.00     432.00000
    3340.00     469.00000
    3460.00     535.00000
    3500.00     558.00000
    3540.00     597.00000
    3580.00     577.00000
    3620.00     563.00000
    3660.00     599.00000
    3700.00     676.00000
    3740.00     706.00000
    3780.00     682.00000
    3820.00     708.00000
    3860.00     764.00000
    3900.00     778.00000
    3940.00     760.00000
    3980.00     813.00000
    4020.00     920.00000
    4060.00     924.00000
    4100.00     880.00000
    4140.00     903.00000
    4180.00     938.00000
    4220.00     947.00000
    4260.00     927.00000
    4300.00     896.00000
    4340.00     896.00000
    4420.00     969.00000
    4460.00     997.00000
    4500.00    1017.00000
    4540.00    1016.00000
    4580.00    1005.00000
    4620.00    1013.00000
    4660.00    1008.00000
    4700.00     994.00000
    4740.00    1013.00000
    4780.00    1006.00000
    4820.00     984.00000
    4860.00     980.00000
    4900.00     967.00000
    4940.00     966.00000
    4980.00     984.00000
    5020.00     977.00000
    5060.00     942.00000
    5100.00     945.00000
    5140.00     933.00000
    5180.00     917.00000
    5220.00     928.00000
    5260.00     920.00000
    5300.00     905.00000
    5340.00     886.00000
    5380.00     990.00000
    5420.00     941.00000
    5460.00     961.00000
    5500.00     945.00000
    5540.00     961.00000
    5580.00     956.00000
    5700.00     926.00000
    5820.00     903.00000
    5940.00     886.00000
    6060.00     878.00000
    6260.00     868.00000
    6460.00     858.00000
    6780.00     842.00000
    6940.00     835.00000
    7100.00     828.00000
    7220.00     825.00000
    7300.00     821.00000
    7420.00     818.00000
    7500.00     814.00000
    7620.00     811.00000
    7700.00     807.00000
    7820.00     804.00000
    8000.00     797.00000
    8200.00     791.00000
    8400.00     786.00000
    8700.00     778.00000
    8900.00     774.00000
    9100.00     769.00000
    9600.00     759.00000
    9800.00     756.00000
   10000.00     753.00000
   10075.00     738.48250
   10125.00     749.12300
   10175.00     739.81260
   10275.00     741.73380
   10325.00     730.94550
   10375.00     724.88630
   10425.00     726.36410
   10475.00     715.72360
   10525.00     710.40340
   10575.00     697.39830
   10675.00     682.02860
   10725.00     684.39320
   10775.00     678.03840
   10825.00     667.10230
   10925.00     656.75730
   10975.00     649.07250
   11025.00     646.11680
   11075.00     637.24970
   11175.00     628.82590
   11225.00     627.93920
   11275.00     619.51550
   11375.00     613.16070
   11425.00     606.51040
   11475.00     612.12620
   11525.00     609.31830
   11625.00     592.47080
   11675.00     590.99290
   11725.00     592.91420
   11775.00     580.79580
   11875.00     565.27830
   11925.00     572.81540
   11975.00     553.89890
